time (s)	det(V)
1313.568297	-0.014204	
1313.570299	-0.017221	
1313.572298	-0.019880	
1313.576295	-0.022856	
1313.578296	-0.030108	
1313.580296	-0.034760	
1313.584301	-0.038247	
1313.586298	-0.046530	
1313.588299	-0.051375	
1313.590296	-0.056396	
1313.592297	-0.061823	
1313.596295	-0.067760	
1313.598298	-0.082400	
1313.600297	-0.089857	
1313.604297	-0.097741	
1313.606298	-0.114786	
1313.608297	-0.124153	
1313.610298	-0.134782	
1313.612297	-0.145954	
1313.616296	-0.157662	
1313.618298	-0.184980	
1313.620297	-0.199474	
1313.624296	-0.214471	
1313.626298	-0.246104	
1313.628298	-0.263886	
1313.630298	-0.282606	
1313.632298	-0.302387	
1313.636295	-0.323377	
1313.638297	-0.367408	
1313.640298	-0.390070	
1313.644297	-0.412277	
1313.646298	-0.456076	
1313.648297	-0.482185	
1313.650298	-0.508571	
1313.652298	-0.534755	
1313.656295	-0.560834	
1313.658298	-0.613740	
1313.660296	-0.639201	
1313.664297	-0.663846	
1313.666298	-0.710733	
1313.668297	-0.731930	
1313.670298	-0.751496	
1313.672298	-0.769967	
1313.676296	-0.785584	
1313.678298	-0.812814	
1313.680297	-0.822169	
1313.684299	-0.829932	
1313.686296	-0.835946	
1313.688298	-0.834840	
1313.690298	-0.831947	
1313.692298	-0.825533	
1313.696295	-0.816925	
1313.698297	-0.795170	
1313.700298	-0.780554	
1313.704296	-0.763463	
1313.706298	-0.725359	
1313.708298	-0.703473	
1313.710297	-0.680678	
1313.712298	-0.657708	
1313.716296	-0.632851	
1313.718298	-0.580972	
1313.720298	-0.554382	
1313.724297	-0.527310	
1313.726298	-0.468308	
1313.728297	-0.439536	
1313.730297	-0.413659	
1313.732298	-0.388874	
1313.736296	-0.358259	
1313.738298	-0.299713	
1313.740298	-0.269377	
1313.744297	-0.238252	
1313.746298	-0.177255	
1313.750296	-0.115638	
1313.752297	-0.084375	
1313.756295	-0.054089	
1313.758297	0.010579	
1313.760297	0.041573	
1313.764296	0.073162	
1313.768295	0.170499	
1313.770297	0.202675	
1313.772298	0.234909	
1313.776296	0.268584	
1313.778301	0.334803	
1313.780300	0.367128	
1313.784303	0.399733	
1313.786300	0.459993	
1313.788300	0.492136	
1313.790301	0.524382	
1313.792300	0.555522	
1313.796298	0.585801	
1313.798300	0.641555	
1313.800299	0.667993	
1313.804300	0.692940	
1313.806300	0.738034	
1313.808300	0.757134	
1313.810300	0.774080	
1313.812301	0.788584	
1313.814300	0.799786	
1313.816300	0.808839	
1313.818299	0.815857	
1313.822298	0.819762	
1313.824301	0.820760	
1313.826300	0.817751	
1313.828301	0.811173	
1313.830301	0.802518	
1313.832300	0.792378	
1313.834300	0.779578	
1313.838298	0.764862	
1313.840300	0.731812	
1313.842300	0.711717	
1313.846300	0.692081	
1313.848300	0.650278	
1313.850300	0.627689	
1313.852301	0.605294	
1313.858299	0.560016	
1313.860300	0.513790	
1313.862301	0.491593	
1313.866299	0.468779	
1313.868302	0.428451	
1313.870304	0.410806	
1313.872301	0.393369	
1313.874303	0.374722	
1313.878301	0.356473	
1313.880302	0.320148	
1313.882303	0.303278	
1313.886302	0.287654	
1313.888302	0.258147	
1313.890302	0.244790	
1313.892302	0.231483	
1313.894303	0.218732	
1313.898300	0.206750	
1313.900302	0.183303	
1313.902302	0.172899	
1313.906302	0.163166	
1313.908303	0.145612	
1313.910303	0.137288	
1313.912303	0.129148	
1313.914303	0.121321	
1313.918300	0.114184	
1313.920301	0.099410	
1313.922303	0.093316	
1313.926302	0.087369	
1313.928303	0.077145	
1313.930303	0.072132	
1313.932303	0.066819	
1313.934302	0.062343	
1313.938300	0.058232	
1313.940302	0.049809	
1313.942302	0.045972	
1313.946302	0.042875	
1313.948302	0.036903	
1313.950303	0.034242	
1313.952302	0.031117	
1313.954303	0.028579	
1313.958309	0.026518	
1313.960313	0.021040	
1313.962312	0.019591	
1313.966313	0.017353	
1313.968313	0.014284	
1313.970311	0.012874	
1313.972312	0.011541	
1313.974312	0.010296	
1313.978310	0.009352	
1313.980313	0.006100	
1313.982311	0.005077	
1313.986311	0.004467	
1313.988311	0.003074	
1313.990312	0.002942	
1313.992313	0.002228	
1313.994312	0.001740	
1313.998309	0.001400	
1314.000312	-0.000558	
1314.002312	-0.001019	
1314.006311	-0.001416	
1314.008314	-0.001101	
1314.010313	-0.001119	
1314.012313	-0.001337	
1314.014312	-0.001571	
1314.018310	-0.001884	
1314.020314	-0.003025	
1314.022312	-0.002941	
1314.026312	-0.002655	
1314.028313	-0.002091	
1314.030312	-0.001583	
1314.032312	-0.002223	
1314.034311	-0.002060	
1314.038311	-0.001922	
1314.040313	-0.002502	
1314.042313	-0.002506	
1314.046312	-0.002113	
1314.048314	-0.001463	
1314.050312	-0.001171	
1314.052312	-0.001487	
1314.054311	-0.001412	
1314.058310	-0.000710	
1314.060313	-0.001739	
1314.062313	-0.001292	
1314.066312	-0.001179	
1314.068313	-0.000635	
1314.070312	-0.000831	
1314.072313	-0.000566	
1314.074313	-0.000268	
1314.078311	-0.000111	
1314.080311	-0.001158	
1314.082311	-0.000891	
1314.086311	-0.000828	
1314.088312	-0.000442	
1314.090314	-0.000027	
1314.092312	-0.000021	
1314.094314	0.000070	
1314.098309	0.000532	
1314.100313	-0.000520	
1314.102312	-0.001041	
1314.118217	0.002072	
1314.120216	0.001982	
1314.122215	0.002558	
1314.124216	0.002800	
1314.128215	0.002345	
1314.130216	0.001258	
1314.132217	0.001313	
1314.136215	0.002003	
1314.138216	0.002115	
1314.140216	0.002887	
1314.142215	0.002600	
1314.144215	0.002472	
1314.146216	0.003191	
1314.148216	0.002273	
1314.150215	0.001736	
1314.154215	0.002174	
1314.156216	0.002038	
1314.158216	0.002815	
1314.160216	0.003295	
1314.162216	0.003459	
1314.164216	0.002997	
1314.166217	0.002780	
1314.170215	0.003410	
1314.172216	0.002854	
1314.174216	0.003009	
1314.176216	0.002649	
1314.178215	0.003775	
1314.180217	0.003824	
1314.182215	0.003721	
1314.184216	0.003809	
1314.186215	0.003610	
1314.190213	0.004242	
1314.192216	0.004131	
1314.194216	0.002220	
1314.196216	0.003576	
1314.198215	0.005098	
1314.200218	0.004922	
1314.202222	0.004790	
1314.204218	0.003914	
1314.206222	0.004995	
1314.210220	0.005728	
1314.214220	0.004398	
1314.216222	0.003920	
1314.218222	0.004751	
1314.220221	0.005756	
1314.222221	0.005239	
1314.224222	0.005038	
1314.226222	0.007012	
1314.228222	0.004319	
1314.232222	0.004958	
1314.236223	0.004909	
1314.238224	0.005715	
1314.240222	0.005219	
1314.242223	0.007158	
1314.244221	0.005964	
1314.246221	0.006059	
1314.250221	0.005065	
1314.254220	0.004961	
1314.256221	0.004777	
1314.258222	0.005817	
1314.260223	0.006250	
1314.262223	0.006726	
1314.264222	0.006310	
1314.266222	0.006325	
1314.268222	0.005431	
1314.272222	0.006088	
1314.276221	0.006194	
1314.278222	0.005945	
1314.280222	0.006795	
1314.282222	0.004801	
1314.284222	0.006601	
1314.286224	0.006055	
1314.288229	0.006778	
1314.292233	0.005313	
1314.296233	0.006182	
1314.298234	0.006472	
1314.300234	0.007564	
1314.302234	0.006846	
1314.304233	0.006726	
1314.306233	0.007292	
1314.310232	0.007265	
1314.312234	0.007676	
1314.316234	0.007325	
1314.318234	0.007093	
1314.320234	0.008170	
1314.322234	0.007792	
1314.324233	0.008036	
1314.326234	0.007954	
1314.330232	0.007521	
1314.334232	0.007416	
1314.336234	0.007741	
1314.338234	0.008517	
1314.340234	0.008573	
1314.342234	0.009072	
1314.344234	0.008778	
1314.346234	0.009408	
1314.348234	0.008186	
1314.352233	0.008579	
1314.354235	0.008559	
1314.356234	0.008219	
1314.358235	0.009736	
1314.360234	0.009841	
1314.362233	0.008830	
1314.364233	0.009125	
1314.366233	0.008459	
1314.368234	0.009910	
1314.372232	0.008646	
1314.376234	0.009583	
1314.378234	0.010069	
1314.380238	0.010229	
1314.382233	0.009289	
1314.384233	0.010142	
1314.386233	0.009618	
1314.388234	0.009794	
1314.390234	0.009639	
1314.394234	0.009293	
1314.396233	0.009372	
1314.398234	0.010444	
1314.400234	0.009769	
1314.402233	0.010257	
1314.404234	0.010098	
1314.406233	0.009646	
1314.408233	0.010671	
1314.410233	0.010269	
1314.414232	0.010169	
1314.416233	0.009272	
1314.418233	0.010765	
1314.420234	0.011297	
1314.422233	0.010690	
1314.424234	0.011476	
1314.426234	0.010611	
1314.430232	0.011472	
1314.432235	0.010498	
1314.434233	0.010681	
1314.436233	0.010354	
1314.438246	0.010540	
1314.440244	0.011937	
1314.442243	0.011751	
1314.444244	0.012005	
1314.446243	0.012408	
1314.450241	0.012844	
1314.454241	0.011393	
1314.456243	0.011493	
1314.458243	0.013163	
1314.460244	0.012826	
1314.462241	0.013674	
1314.464242	0.013505	
1314.466244	0.013390	
1314.470241	0.013277	
1314.472243	0.012999	
1314.476243	0.012984	
1314.478244	0.013443	
1314.480247	0.013874	
1314.482248	0.013732	
1314.484247	0.013808	
1314.486246	0.013998	
1314.488247	0.013021	
1314.492246	0.013319	
1314.494248	0.013643	
1314.496247	0.013089	
1314.498248	0.013469	
1314.500248	0.013887	
1314.502247	0.013814	
1314.504247	0.013012	
1314.506247	0.013162	
1314.508247	0.013590	
1314.510248	0.012676	
1314.516247	0.012128	
1314.518247	0.011961	
1314.520248	0.011399	
1314.522246	0.012186	
1314.524247	0.011245	
1314.526248	0.011301	
1314.528247	0.010438	
1314.532252	0.009900	
1314.536253	0.008050	
1314.538253	0.007846	
1314.540253	0.008264	
1314.542253	0.007161	
1314.544253	0.006766	
1314.546253	0.005610	
1314.548251	0.004542	
1314.552255	0.002942	
1314.556256	0.000497	
1314.558257	-0.000226	
1314.560257	-0.000979	
1314.562257	-0.002411	
1314.564257	-0.003990	
1314.566257	-0.004973	
1314.568256	-0.006751	
1314.570261	-0.009649	
1314.574258	-0.010637	
1314.576258	-0.013379	
1314.578260	-0.015055	
1314.580260	-0.016024	
1314.582257	-0.018889	
1314.584257	-0.021302	
1314.586257	-0.023129	
1314.588257	-0.025942	
1314.590257	-0.028325	
1314.594255	-0.031170	
1314.596257	-0.037333	
1314.598257	-0.040549	
1314.600256	-0.043774	
1314.602256	-0.047437	
1314.604257	-0.051878	
1314.606257	-0.056148	
1314.610255	-0.060739	
1314.614255	-0.071764	
1314.616257	-0.083870	
1314.618257	-0.089948	
1314.620258	-0.096759	
1314.622258	-0.104126	
1314.624257	-0.112426	
1314.626258	-0.120852	
1314.628257	-0.129932	
1314.632258	-0.140068	
1314.636256	-0.161336	
1314.638258	-0.184826	
1314.640257	-0.196980	
1314.642257	-0.211129	
1314.644257	-0.225162	
1314.646257	-0.240358	
1314.648256	-0.256550	
1314.652267	-0.273442	
1314.656267	-0.309207	
1314.658267	-0.346446	
1314.660267	-0.366277	
1314.662267	-0.386431	
1314.664268	-0.406421	
1314.666266	-0.422798	
1314.668266	-0.444093	
1314.672280	-0.466393	
1314.676279	-0.510194	
1314.678280	-0.552297	
1314.682278	-0.593967	
1314.684280	-0.612587	
1314.686284	-0.631624	
1314.688281	-0.649226	
1314.692282	-0.665300	
1314.694283	-0.692820	
1314.696283	-0.704238	
1314.698284	-0.713938	
1314.700286	-0.721054	
1314.702284	-0.726689	
1314.704286	-0.731313	
1314.706285	-0.733170	
1314.708285	-0.732089	
1314.712287	-0.730345	
1314.716284	-0.720440	
1314.718285	-0.700590	
1314.720285	-0.689249	
1314.722285	-0.675922	
1314.724285	-0.659732	
1314.726285	-0.643445	
1314.728284	-0.626117	
1314.732293	-0.607378	
1314.736294	-0.564398	
1314.738293	-0.517892	
1314.740293	-0.492738	
1314.742293	-0.467532	
1314.744293	-0.441451	
1314.746294	-0.416826	
1314.750291	-0.395085	
1314.752294	-0.339672	
1314.756293	-0.310961	
1314.758293	-0.251901	
1314.760293	-0.221533	
1314.762294	-0.191539	
1314.764293	-0.161513	
1314.766294	-0.131217	
1314.770291	-0.099511	
1314.774291	-0.037466	
1314.776294	0.029105	
1314.778293	0.061699	
1314.780295	0.093542	
1314.782294	0.125403	
1314.784294	0.158599	
1314.786296	0.191535	
1314.788295	0.224210	
1314.792295	0.256000	
1314.796295	0.322382	
1314.798295	0.385802	
1314.800296	0.413913	
1314.802297	0.442740	
1314.804296	0.472157	
1314.806294	0.501630	
1314.810294	0.530394	
1314.812295	0.583553	
1314.816296	0.607750	
1314.818296	0.653275	
1314.820296	0.673225	
1314.822296	0.690232	
1314.824295	0.706623	
1314.826295	0.721009	
1314.830294	0.732603	
1314.832296	0.747562	
1314.836296	0.752866	
1314.838296	0.756722	
1314.840296	0.754822	
1314.842295	0.751365	
1314.844296	0.745960	
1314.846296	0.738453	
1314.850295	0.728275	
1314.854294	0.703582	
1314.856296	0.673907	
1314.858297	0.658186	
1314.860296	0.640757	
1314.862295	0.622984	
1314.864296	0.603425	
1314.866297	0.583398	
1314.868296	0.563694	
1314.872296	0.542786	
1314.874296	0.501466	
1314.876296	0.481225	
1314.878296	0.461131	
1314.880296	0.441369	
1314.882295	0.421944	
1314.884296	0.406717	
1314.886296	0.388796	
1314.888296	0.370652	
1314.892296	0.351830	
1314.896295	0.317059	
1314.898297	0.284858	
1314.900296	0.269297	
1314.902295	0.254301	
1314.904295	0.239588	
1314.906296	0.225876	
1314.908296	0.212998	
1314.912294	0.199876	
1314.916295	0.176250	
1314.918296	0.155077	
1314.920296	0.145043	
1314.922296	0.135667	
1314.924295	0.126521	
1314.926297	0.117936	
1314.928295	0.109541	
1314.932294	0.100935	
1314.936296	0.086664	
1314.938296	0.074140	
1314.940296	0.068704	
1314.942296	0.063355	
1314.944296	0.058071	
1314.946296	0.053273	
1314.948296	0.048488	
1314.952300	0.043503	
1314.956298	0.035631	
1314.958300	0.029672	
1314.960300	0.026636	
1314.962303	0.023861	
1314.964299	0.021225	
1314.966302	0.018684	
1314.968302	0.016006	
1314.972306	0.013501	
1314.976307	0.009589	
1314.978309	0.006799	
1314.980311	0.005889	
1314.982309	0.004337	
1314.984311	0.003356	
1314.986310	0.002058	
1314.988309	0.000364	
1314.992310	-0.000968	
1314.994310	-0.002547	
1314.996310	-0.003050	
1314.998312	-0.003297	
1315.000312	-0.003770	
1315.002312	-0.004147	
1315.004313	-0.004960	
1315.006311	-0.005199	
1315.008312	-0.005088	
1315.012311	-0.006443	
1315.016311	-0.006405	
1315.018311	-0.006625	
1315.020313	-0.006489	
1315.022312	-0.006763	
1315.024312	-0.006748	
1315.026312	-0.006801	
1315.028312	-0.006867	
1315.032312	-0.007261	
1315.036312	-0.006889	
1315.038311	-0.006531	
1315.042312	-0.005960	
1315.044311	-0.006378	
1315.046313	-0.005885	
1315.050312	-0.006132	
1315.054312	-0.006369	
1315.056314	-0.006204	
1315.058312	-0.005191	
1315.060314	-0.004971	
1315.062314	-0.004917	
1315.064314	-0.004983	
1315.066313	-0.004947	
1315.068313	-0.004985	
1315.072314	-0.005872	
1315.074315	-0.004926	
1315.076316	-0.005270	
1315.078314	-0.004389	
1315.080314	-0.004057	
1315.082314	-0.004057	
1315.084313	-0.004106	
1315.086313	-0.004007	
1315.088314	-0.003480	
1315.092319	-0.004301	
1315.096320	-0.004169	
1315.098320	-0.003211	
1315.100319	-0.003216	
1315.102320	-0.003209	
1315.104319	-0.003253	
1315.106320	-0.002891	
1315.110318	-0.003271	
1315.114318	-0.003254	
1315.116320	-0.003253	
1315.118319	-0.002441	
1315.134250	0.000398	
1315.136254	0.000234	
1315.140252	0.000010	
1315.142253	0.001340	
1315.144252	0.001027	
1315.146254	0.001482	
1315.148252	0.001342	
1315.152250	0.001207	
1315.154253	0.000935	
1315.156253	0.001082	
1315.160253	0.000839	
1315.162253	0.001632	
1315.164253	0.002304	
1315.166254	0.002012	
1315.168253	0.001917	
1315.172251	0.002491	
1315.174253	0.001570	
1315.176252	0.001801	
1315.180251	0.002069	
1315.182253	0.002330	
1315.184251	0.003322	
1315.186252	0.002512	
1315.188253	0.003033	
1315.190253	0.003014	
1315.192253	0.003391	
1315.194251	0.002418	
1315.198253	0.002765	
1315.200254	0.002128	
1315.202256	0.003648	
1315.204255	0.003102	
1315.206255	0.003697	
1315.208255	0.003801	
1315.210254	0.004570	
1315.214253	0.004640	
1315.216254	0.003260	
1315.218256	0.001926	
1315.220257	0.004412	
1315.222262	0.004503	
1315.224261	0.003711	
1315.226261	0.005059	
1315.228260	0.004886	
1315.230261	0.003087	
1315.232261	0.003888	
1315.236261	0.004359	
1315.238261	0.003111	
1315.240261	0.004043	
1315.242262	0.005267	
1315.244262	0.003240	
1315.246260	0.005018	
1315.248260	0.004393	
1315.250261	0.004850	
1315.252261	0.004843	
1315.256259	0.004953	
1315.260261	0.005101	
1315.262261	0.005722	
1315.264260	0.005750	
1315.266260	0.004138	
1315.268260	0.006254	
1315.270261	0.005381	
1315.272261	0.005034	
1315.276262	0.005520	
1315.280262	0.005632	
1315.282264	0.005488	
1315.284263	0.006663	
1315.286262	0.005620	
1315.288263	0.005704	
1315.290263	0.005965	
1315.292262	0.006978	
1315.296263	0.005603	
1315.298265	0.005648	
1315.300265	0.005322	
1315.302271	0.005844	
1315.304268	0.005891	
1315.306271	0.007250	
1315.308272	0.007908	
1315.310272	0.005864	
1315.312271	0.006634	
1315.316275	0.005993	
1315.320275	0.006059	
1315.322277	0.006501	
1315.324277	0.006184	
1315.326276	0.006891	
1315.328277	0.007646	
1315.330277	0.008321	
1315.332276	0.006837	
1315.336276	0.006814	
1315.340276	0.006324	
1315.342277	0.006755	
1315.344277	0.007200	
1315.346276	0.008418	
1315.348276	0.008042	
1315.350276	0.007601	
1315.352277	0.007093	
1315.356285	0.007414	
1315.358287	0.007024	
1315.360286	0.007548	
1315.362293	0.007538	
1315.364292	0.009086	
1315.366292	0.008399	
1315.368293	0.008123	
1315.370293	0.008369	
1315.372293	0.009315	
1315.376293	0.008282	
1315.380294	0.008103	
1315.382295	0.008515	
1315.384293	0.008885	
1315.386294	0.008596	
1315.388295	0.009256	
1315.390293	0.008791	
1315.392295	0.009659	
1315.396292	0.008075	
1315.400293	0.008288	
1315.402294	0.009037	
1315.404294	0.009670	
1315.406295	0.009724	
1315.408293	0.009420	
1315.410294	0.009354	
1315.412294	0.010376	
1315.416292	0.008536	
1315.420293	0.009262	
1315.422294	0.009807	
1315.424294	0.010234	
1315.426295	0.010793	
1315.428294	0.010760	
1315.430292	0.010412	
1315.432294	0.010291	
1315.434293	0.010153	
1315.438303	0.009827	
1315.440305	0.009431	
1315.442304	0.011170	
1315.444304	0.011075	
1315.446303	0.012429	
1315.450303	0.011932	
1315.452303	0.011681	
1315.454303	0.011129	
1315.460303	0.010674	
1315.462303	0.012473	
1315.464304	0.012493	
1315.466303	0.012359	
1315.468303	0.012761	
1315.470304	0.012676	
1315.472303	0.012505	
1315.474304	0.012826	
1315.478303	0.013148	
1315.480304	0.013050	
1315.482304	0.013675	
1315.484304	0.014145	
1315.486305	0.013622	
1315.488304	0.013384	
1315.490303	0.014413	
1315.494302	0.014402	
1315.496303	0.014085	
1315.498309	0.013833	
1315.500308	0.013873	
1315.502316	0.014201	
1315.504320	0.014656	
1315.506320	0.014363	
1315.508319	0.015340	
1315.510320	0.015155	
1315.512319	0.015638	
1315.516322	0.014762	
1315.520321	0.014798	
1315.522322	0.015918	
1315.524322	0.016278	
1315.526322	0.015532	
1315.528321	0.016280	
1315.530323	0.016432	
1315.532321	0.016025	
1315.536323	0.014948	
1315.538322	0.015223	
1315.540322	0.015215	
1315.542325	0.016087	
1315.544322	0.016488	
1315.546321	0.017083	
1315.548321	0.016486	
1315.550321	0.016266	
1315.552321	0.016744	
1315.556321	0.015383	
1315.560321	0.015451	
1315.562322	0.016589	
1315.564322	0.016990	
1315.566322	0.016878	
1315.568321	0.016765	
1315.570321	0.016864	
1315.572322	0.016776	
1315.576320	0.016158	
1315.580321	0.015918	
1315.582321	0.016650	
1315.584321	0.016689	
1315.586323	0.016363	
1315.588321	0.016581	
1315.590322	0.016792	
1315.592322	0.015524	
1315.596326	0.015387	
1315.600331	0.014872	
1315.602332	0.014894	
1315.604331	0.014806	
1315.606332	0.014573	
1315.608331	0.014167	
1315.610331	0.013837	
1315.612332	0.012929	
1315.616332	0.011831	
1315.620331	0.010374	
1315.622333	0.008516	
1315.624333	0.008702	
1315.626331	0.006973	
1315.628331	0.005785	
1315.630331	0.004402	
1315.632332	0.002502	
1315.636343	0.000112	
1315.640343	-0.004248	
1315.642345	-0.007968	
1315.644343	-0.010561	
1315.646344	-0.013044	
1315.648344	-0.016363	
1315.650344	-0.019716	
1315.652343	-0.023375	
1315.656343	-0.027650	
1315.660343	-0.035644	
1315.662344	-0.045093	
1315.664344	-0.050374	
1315.666343	-0.055987	
1315.668343	-0.062257	
1315.670343	-0.068548	
1315.672344	-0.076116	
1315.676345	-0.083601	
1315.680345	-0.100907	
1315.682346	-0.118934	
1315.684346	-0.129051	
1315.686346	-0.139964	
1315.688345	-0.151180	
1315.690347	-0.162771	
1315.692345	-0.175579	
1315.696345	-0.189219	
1315.700346	-0.217103	
1315.702347	-0.247638	
1315.704346	-0.263753	
1315.706345	-0.280656	
1315.708346	-0.298162	
1315.710345	-0.316399	
1315.712346	-0.335126	
1315.716345	-0.354500	
1315.720345	-0.393808	
1315.722346	-0.427982	
1315.724346	-0.447651	
1315.726346	-0.468595	
1315.728347	-0.489762	
1315.730347	-0.510226	
1315.734344	-0.532155	
1315.738344	-0.573320	
1315.740345	-0.611536	
1315.742346	-0.629621	
1315.744346	-0.646720	
1315.746345	-0.663089	
1315.748345	-0.678982	
1315.750345	-0.693005	
1315.752345	-0.706345	
1315.756348	-0.718286	
1315.758347	-0.736555	
1315.760347	-0.743109	
1315.762352	-0.747706	
1315.764349	-0.750365	
1315.766349	-0.751264	
1315.768350	-0.750574	
1315.770350	-0.747404	
1315.772351	-0.742528	
1315.776351	-0.736146	
1315.780352	-0.716076	
